Freq[Hz]     dBSPL  Phase[Deg]
5.00000     61.831   123.591
5.07273     61.917   123.556
5.14651     62.044   123.511
5.22137     62.211   123.457
5.29732     62.385   123.405
5.37437     62.561   123.350
5.45254     62.738   123.298
5.53185     62.914   123.246
5.61231     63.091   123.193
5.69394     63.267   123.140
5.77676     63.444   123.086
5.86079     63.620   123.032
5.94604     63.797   122.977
6.03252     63.974   122.922
6.12027     64.150   122.866
6.20929     64.327   122.809
6.29961     64.503   122.752
6.39124     64.680   122.694
6.48420     64.856   122.635
6.57851     65.033   122.575
6.67420     65.209   122.515
6.77128     65.386   122.454
6.86977     65.562   122.392
6.96969     65.739   122.330
7.07107     65.915   122.266
7.17392     66.092   122.202
7.27827     66.268   122.137
7.38413     66.445   122.071
7.49154     66.621   122.004
7.60050     66.798   121.936
7.71105     66.975   121.868
7.82321     67.151   121.798
7.93701     67.328   121.728
8.05245     67.504   121.656
8.16958     67.681   121.584
8.28841     67.857   121.510
8.40896     68.034   121.436
8.53128     68.210   121.361
8.65537     68.387   121.284
8.78126     68.563   121.206
8.90899     68.740   121.128
9.03857     68.916   121.048
9.17004     69.093   120.967
9.30342     69.269   120.885
9.43874     69.446   120.802
9.57603     69.622   120.718
9.71532     69.799   120.633
9.85663     69.976   120.546
10.0000     70.152   120.458
10.1455     70.329   120.370
10.2930     70.505   120.279
10.4427     70.682   120.188
10.5946     70.858   120.095
10.7487     71.035   120.001
10.9051     71.211   119.905
11.0637     71.388   119.808
11.2246     71.564   119.710
11.3879     71.741   119.611
11.5535     71.917   119.510
11.7216     72.094   119.407
11.8921     72.270   119.303
12.0650     72.447   119.198
12.2405     72.623   119.091
12.4186     72.800   118.982
12.5992     72.977   118.872
12.7825     73.153   118.760
12.9684     73.330   118.647
13.1570     73.506   118.532
13.3484     73.683   118.415
13.5426     73.859   118.297
13.7395     74.036   118.177
13.9394     74.212   118.055
14.1421     74.389   117.931
14.3478     74.565   117.805
14.5565     74.742   117.677
14.7683     74.918   117.547
14.9831     75.095   117.415
15.2010     75.271   117.281
15.4221     75.448   117.144
15.6464     75.624   117.005
15.8740     75.801   116.863
16.1049     75.978   116.719
16.3392     76.154   116.572
16.5768     76.331   116.422
16.8179     76.507   116.269
17.0626     76.684   116.112
17.3107     76.860   115.951
17.5625     77.037   115.785
17.8180     77.213   115.614
18.0771     77.390   115.437
18.3401     77.566   115.251
18.6068     77.743   115.055
18.8775     77.919   114.844
19.1521     78.096   114.606
19.4306     78.272   114.336
19.7133     78.444   114.036
20.0000     78.598   113.739
20.2909     78.725   113.504
20.5860     78.842   113.364
20.8855     78.957   113.334
21.1893     79.095   113.402
21.4975     79.258   113.511
21.8102     79.436   113.613
22.1274     79.620   113.682
22.4492     79.806   113.714
22.7758     79.991   113.720
23.1071     80.177   113.713
23.4432     80.363   113.702
23.7841     80.548   113.698
24.1301     80.735   113.707
24.4811     80.925   113.728
24.8372     81.126   113.747
25.1984     81.338   113.750
25.5649     81.553   113.735
25.9368     81.766   113.710
26.3141     81.986   113.665
26.6968     82.221   113.571
27.0851     82.469   113.406
27.4791     82.733   113.134
27.8788     82.987   112.744
28.2843     83.220   112.271
28.6957     83.432   111.760
29.1131     83.627   111.252
29.5365     83.814   110.780
29.9661     84.000   110.351
30.4020     84.186   109.964
30.8442     84.373   109.610
31.2929     84.564   109.275
31.7480     84.767   108.935
32.2098     84.979   108.569
32.6783     85.194   108.169
33.1536     85.405   107.733
33.6359     85.613   107.258
34.1251     85.825   106.735
34.6215     86.040   106.161
35.1250     86.249   105.543
35.6359     86.442   104.898
36.1543     86.614   104.262
36.6802     86.774   103.673
37.2137     86.935   103.147
37.7550     87.103   102.676
38.3041     87.281   102.240
38.8613     87.470   101.805
39.4265     87.673   101.334
40.0000     87.886   100.800
40.5818     88.100   100.194
41.1721     88.309    99.519
41.7710     88.506    98.786
42.3785     88.695    98.015
42.9949     88.875    97.230
43.6203     89.045    96.451
44.2548     89.205    95.698
44.8985     89.362    94.973
45.5515     89.523    94.266
46.2141     89.695    93.556
46.8863     89.875    92.811
47.5683     90.056    92.009
48.2602     90.226    91.157
48.9621     90.382    90.279
49.6743     90.524    89.406
50.3968     90.653    88.566
51.1299     90.779    87.773
51.8736     90.908    87.023
52.6281     91.045    86.296
53.3936     91.189    85.567
54.1702     91.335    84.823
54.9581     91.486    84.046
55.7575     91.635    83.223
56.5685     91.779    82.360
57.3914     91.919    81.464
58.2261     92.047    80.539
59.0730     92.159    79.616
59.9323     92.256    78.732
60.8040     92.344    77.906
61.6884     92.422    77.165
62.5857     92.501    76.522
63.4960     92.594    75.951
64.4196     92.705    75.412
65.3566     92.838    74.867
66.3073     92.980    74.280
67.2717     93.129    73.632
68.2502     93.278    72.911
69.2429     93.423    72.131
70.2501     93.566    71.309
71.2719     93.702    70.446
72.3086     93.834    69.548
73.3603     93.966    68.615
74.4274     94.092    67.653
75.5099     94.215    66.663
76.6083     94.329    65.641
77.7226     94.434    64.602
78.8531     94.536    63.545
80.0000     94.633    62.460
81.1636     94.725    61.344
82.3442     94.808    60.198
83.5419     94.872    59.045
84.7570     94.913    57.917
85.9899     94.933    56.847
87.2406     94.939    55.870
88.5096     94.940    55.005
89.7970     94.940    54.259
91.1031     94.941    53.632
92.4282     94.948    53.116
93.7726     94.973    52.678
95.1366     95.026    52.263
96.5204     95.105    51.818
97.9243     95.199    51.304
99.3486     95.291    50.706
100.794     95.369    50.048
102.260     95.440    49.358
103.747     95.506    48.657
105.256     95.570    47.965
106.787     95.632    47.282
108.340     95.694    46.600
109.916     95.756    45.916
111.515     95.818    45.236
113.137     95.877    44.563
114.783     95.934    43.898
116.452     95.988    43.251
118.146     96.043    42.629
119.865     96.104    42.031
121.608     96.174    41.436
123.377     96.252    40.831
125.171     96.337    40.206
126.992     96.436    39.530
128.839     96.540    38.776
130.713     96.653    37.930
132.615     96.768    36.978
134.543     96.877    35.915
136.500     96.972    34.746
138.486     97.058    33.470
140.500     97.144    32.064
142.544     97.216    30.515
144.617     97.256    28.852
146.721     97.253    27.109
148.855     97.186    25.356
151.020     97.055    23.722
153.217     96.867    22.334
155.445     96.623    21.316
157.706     96.349    20.767
160.000     96.085    20.728
162.327     95.877    21.151
164.688     95.751    21.902
167.084     95.718    22.788
169.514     95.780    23.584
171.980     95.914    24.108
174.481     96.095    24.262
177.019     96.281    24.023
179.594     96.436    23.452
182.206     96.539    22.666
184.856     96.596    21.792
187.545     96.620    20.922
190.273     96.626    20.112
193.041     96.626    19.376
195.849     96.627    18.700
198.697     96.627    18.068
201.587     96.627    17.465
204.520     96.627    16.883
207.494     96.627    16.316
210.512     96.627    15.762
213.574     96.627    15.220
216.681     96.627    14.690
219.833     96.627    14.173
223.030     96.630    13.664
226.274     96.638    13.154
229.565     96.652    12.630
232.905     96.672    12.080
236.292     96.694    11.491
239.729     96.717    10.856
243.216     96.740    10.170
246.754     96.763     9.426
250.343     96.787     8.614
253.984     96.810     7.699
257.678     96.833     6.652
261.426     96.862     5.428
265.229     96.863     4.044
269.087     96.786     2.622
273.001     96.647     1.255
276.972     96.441     0.016
281.000     96.222    -1.022
285.088     96.014    -1.852
289.234     95.782    -2.469
293.441     95.509    -2.818
297.709     95.183    -2.806
302.040     94.849    -2.307
306.433     94.567    -1.310
310.890     94.354     0.083
315.412     94.244     1.676
320.000     94.274     3.126
324.655     94.395     4.152
329.377     94.544     4.674
334.168     94.645     4.737
339.028     94.647     4.541
343.959     94.531     4.419
348.962     94.298     4.804
354.038     94.014     6.027
359.188     93.807     8.070
364.412     93.771    10.678
369.713     94.035    13.272
375.090     94.490    15.161
380.546     94.989    16.094
386.081     95.503    16.015
391.697     95.982    14.982
397.394     96.396    13.171
403.175     96.686    10.853
409.039     96.797     8.290
414.989     96.667     5.922
421.025     96.349     4.160
427.149     95.969     3.250
433.362     95.568     3.376
439.665     95.330     4.420
446.060     95.290     5.842
452.548     95.399     7.189
459.131     95.596     8.211
465.809     95.838     8.795
472.584     96.061     8.944
479.458     96.242     8.833
486.432     96.451     8.550
493.507     96.656     8.070
500.686     96.865     7.409
507.968     97.088     6.523
515.357     97.310     5.355
522.853     97.529     3.877
530.458     97.729     2.071
538.174     97.879    -0.011
546.002     97.949    -2.262
553.943     97.925    -4.548
562.001     97.820    -6.737
570.175     97.661    -8.725
578.469     97.481   -10.471
586.883     97.303   -12.006
595.419     97.131   -13.407
604.080     96.955   -14.739
612.866     96.767   -16.040
621.780     96.560   -17.331
630.824     96.300   -18.547
640.000     95.961   -19.517
649.309     95.563   -20.099
658.753     95.096   -20.132
668.335     94.618   -19.441
678.056     94.229   -18.084
687.919     93.949   -16.286
697.925     93.794   -14.288
708.077     93.752   -12.362
718.376     93.766   -10.660
728.825     93.811    -9.228
739.426     93.882    -8.072
750.181     93.993    -7.211
761.093     94.115    -6.657
772.163     94.177    -6.262
783.394     94.185    -5.850
794.789     94.160    -5.364
806.349     94.153    -4.765
818.078     94.231    -4.121
829.977     94.346    -3.551
842.050     94.415    -3.019
854.298     94.489    -2.520
866.724     94.571    -2.085
879.330     94.723    -1.744
892.120     94.945    -1.663
905.097     95.151    -1.927
918.262     95.299    -2.446
931.618     95.385    -3.091
945.169     95.416    -3.716
958.917     95.424    -4.215
972.864     95.443    -4.584
987.015     95.491    -4.911
1001.37     95.566    -5.300
1015.94     95.663    -5.837
1030.71     95.757    -6.580
1045.71     95.799    -7.468
1060.92     95.787    -8.397
1076.35     95.728    -9.302
1092.00     95.625   -10.087
1107.89     95.517   -10.700
1124.00     95.380   -11.120
1140.35     95.219   -11.293
1156.94     95.045   -11.187
1173.77     94.843   -10.706
1190.84     94.658    -9.758
1208.16     94.526    -8.396
1225.73     94.451    -6.674
1243.56     94.489    -4.698
1261.65     94.672    -2.775
1280.00     94.964    -1.208
1298.62     95.388    -0.253
1317.51     95.897    -0.185
1336.67     96.355    -0.967
1356.11     96.749    -2.444
1375.84     96.996    -4.410
1395.85     97.064    -6.494
1416.15     97.025    -8.401
1436.75     96.868    -9.913
1457.65     96.641   -10.757
1478.85     96.419   -10.859
1500.36     96.261   -10.334
1522.19     96.254    -9.457
1544.33     96.405    -8.635
1566.79     96.667    -8.195
1589.58     96.960    -8.321
1612.70     97.195    -8.926
1636.16     97.332    -9.733
1659.95     97.396   -10.506
1684.10     97.393   -11.062
1708.60     97.393   -11.277
1733.45     97.470   -11.196
1758.66     97.626   -10.998
1784.24     97.830   -10.824
1810.19     98.131   -10.862
1836.52     98.535   -11.387
1863.24     98.929   -12.432
1890.34     99.332   -13.968
1917.83     99.721   -16.105
1945.73    100.020   -18.722
1974.03    100.253   -21.593
2002.74    100.411   -24.671
2031.87    100.466   -27.860
2061.43    100.450   -31.007
2091.41    100.368   -33.995
2121.83    100.212   -36.740
2152.69    100.009   -39.214
2184.01     99.800   -41.454
2215.77     99.604   -43.479
2248.00     99.399   -45.284
2280.70     99.154   -46.867
2313.87     98.820   -48.096
2347.53     98.444   -48.778
2381.68     98.093   -48.823
2416.32     97.775   -48.171
2451.46     97.598   -46.944
2487.12     97.554   -45.421
2523.30     97.660   -43.808
2560.00     97.950   -42.489
2597.24     98.395   -41.857
2635.01     99.020   -42.266
2673.34     99.733   -43.965
2712.23    100.390   -46.937
2751.68    100.941   -50.999
2791.70    101.331   -56.021
2832.31    101.520   -61.644
2873.50    101.489   -67.505
2915.30    101.250   -73.367
2957.70    100.734   -78.864
3000.72    100.001   -83.613
3044.37     99.086   -87.208
3088.65     98.028   -89.307
3133.58     97.004   -89.710
3179.16     96.164   -88.669
3225.40     95.648   -86.774
3272.31     95.406   -84.816
3319.91     95.262   -83.199
3368.20     95.112   -81.919
3417.19     94.950   -80.792
3466.89     94.814   -79.671
3517.32     94.774   -78.560
3568.48     94.835   -77.619
3620.39     94.900   -76.891
3673.05     94.963   -76.319
3726.47     95.084   -75.982
3780.67     95.233   -75.922
3835.67     95.416   -76.086
3891.46     95.641   -76.581
3948.06     95.835   -77.462
4005.49     95.972   -78.554
4063.75     96.119   -79.787
4122.86     96.245   -81.207
4182.82     96.356   -82.775
4243.66     96.490   -84.510
4305.39     96.582   -86.386
4368.01     96.595   -88.220
4431.55     96.523   -89.821
4496.01     96.388   -91.012
4561.40     96.311   -91.755
4627.75     96.397   -92.319
4695.06     96.668   -93.102
4763.35     97.075   -94.477
4832.64     97.497   -96.594
4902.93     97.820   -99.313
4974.24     98.061  -102.432
5046.60     98.237  -105.827
5120.00     98.429  -109.485
5194.47     98.687  -113.535
5270.03     99.000  -118.171
5346.68     99.312  -123.521
5424.45     99.505  -129.533
5503.35     99.510  -136.052
5583.40     99.334  -142.909
5664.61     98.973  -149.886
5747.01     98.417  -156.559
5830.60     97.615  -162.399
5915.41     96.597  -167.222
6001.45     95.448  -170.923
6088.74     94.374  -173.373
6177.30     93.643  -174.797
6267.15     93.096  -175.830
6358.31     92.507  -176.733
6450.80     91.931  -177.501
6544.62     91.526  -178.246
6639.82     91.317  -179.300
6736.40     91.289   178.864
6834.38     91.303   175.995
6933.79     91.279   172.091
7034.64     91.103   167.354
7136.96     90.688   162.117
7240.77     90.097   156.634
7346.09     89.298   151.167
7452.94     88.304   146.170
7561.35     87.179   141.957
7671.33     85.835   138.707
7782.91     84.363   136.690
7896.12     83.018   135.795
8010.97     81.950   135.495
8127.49     81.078   135.232
8245.71     80.179   134.731
8365.65     79.088   134.116
8487.33     77.746   133.856
8610.78     76.281   134.499
8736.03     74.845   136.274
8863.09     73.402   139.345
8992.01     71.930   144.048
9122.80     70.465   150.810
9255.50     69.160   159.988
9390.12     68.362   170.842
9526.70     68.141  -178.494
9665.27     68.275  -169.344
9805.86     68.557  -162.018
9948.49     68.890  -156.162
10093.2     69.301  -151.532
10240.0     69.751  -148.119
10388.9     70.169  -145.812
10540.1     70.498  -144.419
10693.4     70.630  -143.516
10848.9     70.545  -142.516
11006.7     70.276  -140.864
11166.8     69.856  -137.908
11329.2     69.489  -133.172
11494.0     69.362  -126.675
11661.2     69.646  -119.049
11830.8     70.432  -111.687
12002.9     71.723  -106.169
12177.5     73.394  -103.552
12354.6     75.146  -103.930
12534.3     76.704  -106.721
12716.6     77.973  -111.257
12901.6     78.970  -117.043
13089.2     79.788  -123.780
13279.6     80.483  -131.284
13472.8     81.060  -139.434
13668.8     81.544  -148.286
13867.6     81.872  -157.904
14069.3     81.967  -167.994
14273.9     81.801  -178.407
14481.5     81.227   171.327
14692.2     80.176   161.651
14905.9     78.772   152.671
15122.7     76.907   145.277
15342.7     74.787   140.581
15565.8     72.813   138.881
15792.2     70.705   140.442
16021.9     69.086   144.913
16255.0     68.536   149.483
16491.4     68.316   152.538
16731.3     68.073   153.695
16974.7     67.706   153.749
17221.6     67.235   153.303
17472.1     66.631   152.792
17726.2     65.903   152.649
17984.0     65.305   152.674
18245.6     64.741   152.439
18511.0     64.297   151.839
18780.2     63.905   150.626
19053.4     63.125   149.440
19330.5     61.957   149.290
19611.7     60.513   150.800
19897.0     58.944   154.884
20186.4     58.014   161.052
20480.0     57.714   167.066
20777.9     57.536   172.036
21080.1     57.383   175.809
21386.7     57.230   178.916
21697.8     57.078  -178.387
22013.4     56.925  -175.986
22333.6     56.773  -173.812
22658.4     56.620  -171.822
22988.0     56.468  -169.983
23322.4     56.315  -168.272
23661.6     56.162  -166.672
24005.8     56.010  -165.168
24355.0     55.857  -163.749
24709.2     55.705  -162.404
25068.6     55.552  -161.128
25433.2     55.400  -159.912
25803.2     55.247  -158.751
26178.5     55.094  -157.641
26559.3     54.942  -156.577
26945.6     54.789  -155.556
27337.5     54.637  -154.574
27735.2     54.484  -153.629
28138.6     54.332  -152.718
28547.9     54.179  -151.839
28963.1     54.026  -150.989
29384.4     53.874  -150.168
29811.8     53.721  -149.373
30245.4     53.569  -148.602
30685.3     53.416  -147.855
31131.7     53.264  -147.131
31584.5     53.111  -146.427
32043.9     52.958  -145.743
32510.0     52.806  -145.079
32982.8     52.653  -144.432
33462.6     52.501  -143.803
33949.3     52.348  -143.190
34443.1     52.196  -142.593
34944.1     52.043  -142.011
35452.4     51.890  -141.444
35968.0     51.738  -140.890
36491.2     51.585  -140.351
37022.0     51.433  -139.824
37560.5     51.280  -139.313
38106.8     51.130  -138.859
38661.1     50.986  -138.461
39223.4     50.876  -138.170
39793.9     50.802  -137.949
