Freq[Hz]  Imp[Ohm]  Phase[Deg]
5.00000      3.378    10.623
5.07273      3.379    10.683
5.14651      3.380    10.761
5.22137      3.381    10.867
5.29732      3.382    10.987
5.37437      3.384    11.122
5.45254      3.385    11.259
5.53185      3.387    11.399
5.61231      3.388    11.542
5.69394      3.390    11.688
5.77676      3.392    11.836
5.86079      3.393    11.987
5.94604      3.395    12.141
6.03252      3.397    12.297
6.12027      3.399    12.457
6.20929      3.401    12.619
6.29961      3.403    12.784
6.39124      3.405    12.952
6.48420      3.407    13.122
6.57851      3.409    13.296
6.67420      3.411    13.473
6.77128      3.413    13.654
6.86977      3.415    13.837
6.96969      3.418    14.024
7.07107      3.420    14.213
7.17392      3.422    14.407
7.27827      3.425    14.604
7.38413      3.427    14.804
7.49154      3.430    15.008
7.60050      3.433    15.216
7.71105      3.435    15.427
7.82321      3.438    15.643
7.93701      3.441    15.863
8.05245      3.444    16.087
8.16958      3.447    16.315
8.28841      3.450    16.548
8.40896      3.454    16.785
8.53128      3.457    17.028
8.65537      3.460    17.275
8.78126      3.464    17.528
8.90899      3.467    17.786
9.03857      3.471    18.051
9.17004      3.475    18.321
9.30342      3.479    18.598
9.43874      3.483    18.882
9.57603      3.487    19.172
9.71532      3.491    19.469
9.85663      3.495    19.774
10.0000      3.498    20.093
10.1455      3.501    20.436
10.2930      3.502    20.817
10.4427      3.503    21.266
10.5946      3.503    21.800
10.7487      3.507    22.413
10.9051      3.528    23.034
11.0637      3.573    23.520
11.2246      3.622    23.821
11.3879      3.671    23.939
11.5535      3.699    23.901
11.7216      3.707    23.827
11.8921      3.709    23.814
12.0650      3.709    23.883
12.2405      3.709    24.030
12.4186      3.709    24.235
12.5992      3.709    24.485
12.7825      3.709    24.776
12.9684      3.709    25.107
13.1570      3.709    25.483
13.3484      3.709    25.912
13.5426      3.709    26.420
13.7395      3.710    27.018
13.9394      3.714    27.696
14.1421      3.739    28.374
14.3478      3.788    28.908
14.5565      3.838    29.273
14.7683      3.886    29.480
14.9831      3.910    29.560
15.2010      3.914    29.652
15.4221      3.915    29.845
15.6464      3.915    30.156
15.8740      3.915    30.604
16.1049      3.916    31.173
16.3392      3.923    31.836
16.5768      3.952    32.506
16.8179      4.001    33.064
17.0626      4.051    33.497
17.3107      4.095    33.839
17.5625      4.118    34.141
17.8180      4.125    34.515
18.0771      4.151    34.958
18.3401      4.200    35.348
18.6068      4.250    35.653
18.8775      4.298    35.861
19.1521      4.322    35.998
19.4306      4.326    36.193
19.7133      4.327    36.539
20.0000      4.329    37.048
20.2909      4.339    37.693
20.5860      4.371    38.373
20.8855      4.420    39.003
21.1893      4.470    39.577
21.4975      4.514    40.106
21.8102      4.551    40.599
22.1274      4.595    41.071
22.4492      4.645    41.542
22.7758      4.695    42.023
23.1071      4.731    42.521
23.4432      4.767    43.054
23.7841      4.818    43.605
24.1301      4.871    44.182
24.4811      4.933    44.761
24.8372      4.994    45.290
25.1984      5.048    45.822
25.5649      5.101    46.421
25.9368      5.164    47.060
26.3141      5.233    47.706
26.6968      5.311    48.357
27.0851      5.413    48.950
27.4791      5.512    49.452
27.8788      5.615    49.872
28.2843      5.698    50.263
28.6957      5.782    50.682
29.1131      5.859    51.148
29.5365      5.932    51.716
29.9661      6.024    52.362
30.4020      6.126    53.030
30.8442      6.254    53.683
31.2929      6.390    54.279
31.7480      6.522    54.853
32.2098      6.659    55.409
32.6783      6.781    55.999
33.1536      6.924    56.656
33.6359      7.090    57.321
34.1251      7.269    57.987
34.6215      7.472    58.626
35.1250      7.676    59.218
35.6359      7.903    59.772
36.1543      8.144    60.277
36.6802      8.387    60.783
37.2137      8.636    61.319
37.7550      8.895    61.888
38.3041      9.186    62.503
38.8613      9.526    63.134
39.4265      9.889    63.772
40.0000     10.296    64.397
40.5818     10.755    64.961
41.1721     11.267    65.470
41.7710     11.843    65.924
42.3785     12.469    66.314
42.9949     13.157    66.650
43.6203     13.940    66.922
44.2548     14.852    67.100
44.8985     15.916    67.169
45.5515     17.112    67.103
46.2141     18.436    66.929
46.8863     20.117    66.585
47.5683     22.244    65.844
48.2602     24.778    64.577
48.9621     28.204    62.444
49.6743     32.598    59.053
50.3968     37.821    54.180
51.1299     43.795    47.800
51.8736     50.435    39.808
52.6281     57.288    30.390
53.3936     62.848    20.003
54.1702     65.956     9.194
54.9581     65.697    -1.743
55.7575     62.183   -12.506
56.5685     56.625   -22.679
57.3914     50.434   -31.820
58.2261     44.287   -39.499
59.0730     38.841   -45.688
59.9323     33.920   -50.527
60.8040     29.734   -54.099
61.6884     26.645   -56.614
62.5857     24.276   -58.552
63.4960     22.236   -60.124
64.4196     20.513   -61.462
65.3566     18.998   -62.620
66.3073     17.561   -63.549
67.2717     16.236   -64.172
68.2502     15.067   -64.483
69.2429     14.072   -64.513
70.2501     13.244   -64.367
71.2719     12.533   -64.140
72.3086     11.893   -63.871
73.3603     11.300   -63.553
74.4274     10.756   -63.174
75.5099     10.263   -62.723
76.6083      9.824   -62.202
77.7226      9.441   -61.663
78.8531      9.085   -61.139
80.0000      8.757   -60.621
81.1636      8.449   -60.099
82.3442      8.146   -59.533
83.5419      7.846   -58.868
84.7570      7.569   -58.085
85.9899      7.335   -57.234
87.2406      7.138   -56.371
88.5096      6.970   -55.547
89.7970      6.817   -54.817
91.1031      6.664   -54.181
92.4282      6.510   -53.586
93.7726      6.359   -52.992
95.1366      6.208   -52.380
96.5204      6.056   -51.720
97.9243      5.905   -50.969
99.3486      5.771   -50.130
100.794      5.661   -49.288
102.260      5.561   -48.469
103.747      5.477   -47.685
105.256      5.397   -46.980
106.787      5.299   -46.300
108.340      5.213   -45.620
109.916      5.125   -44.930
111.515      5.048   -44.214
113.137      4.972   -43.504
114.783      4.887   -42.757
116.452      4.821   -41.996
118.146      4.758   -41.266
119.865      4.698   -40.531
121.608      4.643   -39.818
123.377      4.589   -39.152
125.171      4.525   -38.466
126.992      4.459   -37.693
128.839      4.407   -36.897
130.713      4.356   -36.114
132.615      4.322   -35.346
134.543      4.290   -34.618
136.500      4.240   -33.874
138.486      4.191   -33.097
140.500      4.146   -32.287
142.544      4.124   -31.479
144.617      4.118   -30.782
146.721      4.102   -30.206
148.855      4.066   -29.654
151.020      4.018   -29.032
153.217      3.969   -28.299
155.445      3.933   -27.465
157.706      3.918   -26.609
160.000      3.915   -25.856
162.327      3.914   -25.257
164.688      3.911   -24.805
167.084      3.891   -24.415
169.514      3.847   -23.941
171.980      3.798   -23.324
174.481      3.748   -22.545
177.019      3.718   -21.620
179.594      3.710   -20.671
182.206      3.709   -19.790
184.856      3.709   -18.999
187.545      3.709   -18.288
190.273      3.709   -17.634
193.041      3.709   -17.023
195.849      3.709   -16.448
198.697      3.709   -15.906
201.587      3.709   -15.397
204.520      3.709   -14.920
207.494      3.709   -14.480
210.512      3.709   -14.087
213.574      3.709   -13.765
216.681      3.708   -13.522
219.833      3.704   -13.350
223.030      3.680   -13.162
226.274      3.632   -12.816
229.565      3.582   -12.277
232.905      3.533   -11.536
236.292      3.508   -10.619
239.729      3.504    -9.680
243.216      3.503    -8.804
246.754      3.503    -8.000
250.343      3.503    -7.251
253.984      3.503    -6.528
257.678      3.503    -5.816
261.426      3.503    -5.102
265.229      3.503    -4.372
269.087      3.503    -3.596
273.001      3.503    -2.761
276.972      3.507    -1.877
281.000      3.532    -1.035
285.088      3.579    -0.373
289.234      3.627     0.086
293.441      3.662     0.401
297.709      3.673     0.636
302.040      3.678     0.856
306.433      3.679     1.136
310.890      3.694     1.466
315.412      3.706     1.770
320.000      3.708     2.058
324.655      3.709     2.367
329.377      3.709     2.704
334.168      3.709     3.075
339.028      3.709     3.470
343.959      3.709     3.886
348.962      3.709     4.320
354.038      3.709     4.775
359.188      3.709     5.251
364.412      3.709     5.753
369.713      3.709     6.286
375.090      3.709     6.860
380.546      3.709     7.503
386.081      3.710     8.227
391.697      3.714     9.024
397.394      3.739     9.813
403.175      3.788    10.452
409.039      3.838    10.917
414.989      3.886    11.219
421.025      3.910    11.394
427.149      3.914    11.589
433.362      3.915    11.898
439.665      3.916    12.346
446.060      3.922    12.921
452.548      3.937    13.557
459.131      3.971    14.176
465.809      4.020    14.693
472.584      4.064    15.122
479.458      4.102    15.514
486.432      4.124    15.930
493.507      4.154    16.406
500.686      4.208    16.874
507.968      4.283    17.230
515.357      4.384    17.325
522.853      4.482    17.065
530.458      4.581    16.451
538.174      4.643    15.570
546.002      4.660    14.617
553.943      4.626    13.758
562.001      4.548    13.170
570.175      4.460    12.996
578.469      4.393    13.188
586.883      4.349    13.636
595.419      4.330    14.209
604.080      4.327    14.789
612.866      4.327    15.337
621.780      4.327    15.878
630.824      4.327    16.444
640.000      4.330    17.054
649.309      4.346    17.672
658.753      4.385    18.202
668.335      4.434    18.583
678.056      4.483    18.811
687.919      4.518    18.906
697.925      4.531    18.945
708.077      4.533    19.021
718.376      4.533    19.168
728.825      4.533    19.388
739.426      4.533    19.672
750.181      4.533    20.010
761.093      4.533    20.409
772.163      4.533    20.886
783.394      4.535    21.445
794.789      4.544    22.066
806.349      4.575    22.671
818.078      4.624    23.169
829.977      4.673    23.554
842.050      4.716    23.852
854.298      4.736    24.122
866.724      4.742    24.471
879.330      4.758    24.916
892.120      4.797    25.385
905.097      4.847    25.823
918.262      4.898    26.207
931.618      4.947    26.515
945.169      4.996    26.737
958.917      5.047    26.901
972.864      5.097    27.047
987.015      5.134    27.197
1001.37      5.153    27.399
1015.94      5.181    27.682
1030.71      5.232    27.976
1045.71      5.292    28.244
1060.92      5.372    28.420
1076.35      5.446    28.444
1092.00      5.504    28.386
1107.89      5.571    28.252
1124.00      5.639    27.989
1140.35      5.691    27.654
1156.94      5.740    27.264
1173.77      5.765    26.812
1190.84      5.768    26.370
1208.16      5.763    25.983
1225.73      5.738    25.705
1243.56      5.690    25.616
1261.65      5.640    25.720
1280.00      5.592    26.021
1298.62      5.568    26.510
1317.51      5.566    27.092
1336.67      5.577    27.690
1356.11      5.612    28.228
1375.84      5.661    28.650
1395.85      5.710    28.970
1416.15      5.749    29.219
1436.75      5.767    29.460
1457.65      5.772    29.772
1478.85      5.792    30.161
1500.36      5.834    30.561
1522.19      5.884    30.938
1544.33      5.935    31.277
1566.79      5.984    31.558
1589.58      6.033    31.789
1612.70      6.085    31.998
1636.16      6.136    32.201
1659.95      6.185    32.384
1684.10      6.234    32.536
1708.60      6.286    32.678
1733.45      6.337    32.831
1758.66      6.387    32.986
1784.24      6.438    33.117
1810.19      6.501    33.202
1836.52      6.585    33.189
1863.24      6.672    33.020
1890.34      6.737    32.716
1917.83      6.775    32.342
1945.73      6.773    31.998
1974.03      6.733    31.826
2002.74      6.685    31.884
2031.87      6.638    32.172
2061.43      6.626    32.636
2091.41      6.657    33.134
2121.83      6.705    33.574
2152.69      6.754    33.952
2184.01      6.787    34.292
2215.77      6.803    34.674
2248.00      6.832    35.125
2280.70      6.886    35.596
2313.87      6.961    36.043
2347.53      7.059    36.391
2381.68      7.145    36.627
2416.32      7.235    36.770
2451.46      7.321    36.811
2487.12      7.408    36.766
2523.30      7.497    36.635
2560.00      7.561    36.441
2597.24      7.603    36.239
2635.01      7.620    36.074
2673.34      7.623    36.005
2712.23      7.624    36.061
2751.68      7.624    36.241
2791.70      7.628    36.534
2832.31      7.654    36.903
2873.50      7.704    37.280
2915.30      7.759    37.653
2957.70      7.836    37.984
3000.72      7.914    38.219
3044.37      7.994    38.378
3088.65      8.090    38.445
3133.58      8.162    38.446
3179.16      8.214    38.444
3225.40      8.242    38.479
3272.31      8.268    38.581
3319.91      8.316    38.733
3368.20      8.366    38.914
3417.19      8.418    39.121
3466.89      8.466    39.334
3517.32      8.517    39.556
3568.48      8.571    39.810
3620.39      8.646    40.068
3673.05      8.728    40.275
3726.47      8.811    40.432
3780.67      8.910    40.529
3835.67      8.984    40.581
3891.46      9.041    40.648
3948.06      9.091    40.742
4005.49      9.145    40.870
4063.75      9.200    41.053
4122.86      9.275    41.260
4182.82      9.351    41.447
4243.66      9.419    41.641
4305.39      9.505    41.834
4368.01      9.591    42.003
4431.55      9.680    42.159
4496.01      9.771    42.304
4561.40      9.857    42.447
4627.75      9.947    42.591
4695.06     10.035    42.739
4763.35     10.141    42.885
4832.64     10.252    43.008
4902.93     10.367    43.110
4974.24     10.482    43.188
5046.60     10.609    43.225
5120.00     10.746    43.203
5194.47     10.891    43.107
5270.03     11.041    42.906
5346.68     11.191    42.569
5424.45     11.322    42.113
5503.35     11.401    41.623
5583.40     11.410    41.206
5664.61     11.356    40.962
5747.01     11.288    40.958
5830.60     11.268    41.167
5915.41     11.306    41.500
6001.45     11.413    41.817
6088.74     11.535    42.023
6177.30     11.658    42.120
6267.15     11.778    42.112
6358.31     11.862    42.047
6450.80     11.943    41.970
6544.62     12.021    41.873
6639.82     12.077    41.791
6736.40     12.127    41.753
6834.38     12.153    41.770
6933.79     12.161    41.886
7034.64     12.187    42.101
7136.96     12.241    42.376
7240.77     12.318    42.678
7346.09     12.432    42.948
7452.94     12.547    43.153
7561.35     12.663    43.310
7671.33     12.776    43.425
7782.91     12.868    43.530
7896.12     12.957    43.655
8010.97     13.056    43.790
8127.49     13.157    43.938
8245.71     13.270    44.097
8365.65     13.383    44.250
8487.33     13.504    44.387
8610.78     13.641    44.496
8736.03     13.780    44.572
8863.09     13.917    44.623
8992.01     14.045    44.648
9122.80     14.160    44.669
9255.50     14.275    44.703
9390.12     14.390    44.753
9526.70     14.517    44.805
9665.27     14.641    44.854
9805.86     14.765    44.913
9948.49     14.901    44.968
10093.2     15.022    45.022
10240.0     15.155    45.088
10388.9     15.306    45.142
10540.1     15.458    45.179
10693.4     15.611    45.209
10848.9     15.774    45.214
11006.7     15.942    45.179
11166.8     16.120    45.098
11329.2     16.317    44.950
11494.0     16.489    44.736
11661.2     16.623    44.500
11830.8     16.721    44.278
12002.9     16.795    44.097
12177.5     16.865    43.982
12354.6     16.953    43.923
12534.3     17.030    43.912
12716.6     17.116    43.943
12901.6     17.218    43.988
13089.2     17.338    44.031
13279.6     17.474    44.065
13472.8     17.609    44.076
13668.8     17.727    44.077
13867.6     17.830    44.093
14069.3     17.934    44.140
14273.9     18.049    44.212
14481.5     18.187    44.291
14692.2     18.336    44.361
14905.9     18.488    44.418
15122.7     18.641    44.459
15342.7     18.793    44.483
15565.8     18.944    44.504
15792.2     19.096    44.530
16021.9     19.250    44.556
16255.0     19.405    44.578
16491.4     19.575    44.593
16731.3     19.761    44.584
16974.7     19.937    44.553
17221.6     20.104    44.509
17472.1     20.264    44.456
17726.2     20.417    44.406
17984.0     20.568    44.374
18245.6     20.720    44.357
18511.0     20.877    44.346
18780.2     21.044    44.333
19053.4     21.229    44.308
19330.5     21.416    44.264
19611.7     21.590    44.206
19897.0     21.755    44.143
20186.4     21.914    44.082
20480.0     22.078    44.031
20777.9     22.248    43.982
21080.1     22.420    43.932
21386.7     22.591    43.879
21697.8     22.763    43.822
22013.4     22.935    43.764
22333.6     23.106    43.703
22658.4     23.278    43.642
22988.0     23.450    43.579
23322.4     23.621    43.516
23661.6     23.793    43.452
24005.8     23.965    43.388
24355.0     24.136    43.324
24709.2     24.308    43.260
25068.6     24.479    43.195
25433.2     24.651    43.131
25803.2     24.823    43.067
26178.5     24.994    43.003
26559.3     25.166    42.940
26945.6     25.338    42.877
27337.5     25.509    42.815
27735.2     25.681    42.754
28138.6     25.853    42.694
28547.9     26.024    42.634
28963.1     26.196    42.576
29384.4     26.368    42.518
29811.8     26.539    42.462
30245.4     26.711    42.408
30685.3     26.882    42.355
31131.7     27.054    42.303
31584.5     27.226    42.253
32043.9     27.397    42.205
32510.0     27.569    42.159
32982.8     27.741    42.115
33462.6     27.912    42.073
33949.3     28.084    42.034
34443.1     28.256    41.997
34944.1     28.427    41.964
35452.4     28.599    41.933
35968.0     28.771    41.907
36491.2     28.942    41.884
37022.0     29.114    41.866
37560.5     29.286    41.855
38106.8     29.455    41.850
38661.1     29.616    41.854
39223.4     29.737    41.860
39793.9     29.819    41.867
