Freq[Hz]  Imp[Ohm]  Phase[Deg]
5.00000      6.263     0.174
5.07273      6.263     0.175
5.14651      6.263     0.176
5.22137      6.263     0.178
5.29732      6.263     0.181
5.37437      6.263     0.183
5.45254      6.263     0.186
5.53185      6.263     0.188
5.61231      6.263     0.191
5.69394      6.263     0.194
5.77676      6.263     0.196
5.86079      6.263     0.199
5.94604      6.263     0.202
6.03252      6.263     0.205
6.12027      6.263     0.208
6.20929      6.263     0.211
6.29961      6.263     0.214
6.39124      6.263     0.217
6.48420      6.263     0.220
6.57851      6.263     0.223
6.67420      6.263     0.226
6.77128      6.263     0.229
6.86977      6.263     0.232
6.96969      6.263     0.236
7.07107      6.263     0.239
7.17392      6.263     0.242
7.27827      6.263     0.246
7.38413      6.263     0.249
7.49154      6.263     0.253
7.60050      6.263     0.256
7.71105      6.263     0.260
7.82321      6.263     0.264
7.93701      6.263     0.268
8.05245      6.263     0.271
8.16958      6.263     0.275
8.28841      6.263     0.279
8.40896      6.263     0.283
8.53128      6.263     0.287
8.65537      6.263     0.291
8.78126      6.263     0.295
8.90899      6.263     0.300
9.03857      6.263     0.304
9.17004      6.263     0.308
9.30342      6.263     0.313
9.43874      6.263     0.317
9.57603      6.264     0.322
9.71532      6.264     0.326
9.85663      6.264     0.331
10.0000      6.264     0.336
10.1455      6.264     0.341
10.2930      6.264     0.345
10.4427      6.264     0.350
10.5946      6.264     0.355
10.7487      6.264     0.360
10.9051      6.264     0.366
11.0637      6.264     0.371
11.2246      6.264     0.376
11.3879      6.264     0.382
11.5535      6.264     0.387
11.7216      6.264     0.393
11.8921      6.264     0.398
12.0650      6.264     0.404
12.2405      6.264     0.410
12.4186      6.264     0.416
12.5992      6.264     0.421
12.7825      6.264     0.428
12.9684      6.264     0.434
13.1570      6.264     0.440
13.3484      6.264     0.446
13.5426      6.264     0.453
13.7395      6.264     0.459
13.9394      6.264     0.466
14.1421      6.264     0.472
14.3478      6.264     0.479
14.5565      6.264     0.486
14.7683      6.265     0.493
14.9831      6.265     0.500
15.2010      6.265     0.507
15.4221      6.265     0.515
15.6464      6.265     0.522
15.8740      6.265     0.530
16.1049      6.265     0.538
16.3392      6.265     0.545
16.5768      6.265     0.553
16.8179      6.265     0.561
17.0626      6.265     0.570
17.3107      6.265     0.578
17.5625      6.265     0.586
17.8180      6.265     0.595
18.0771      6.265     0.604
18.3401      6.265     0.612
18.6068      6.265     0.621
18.8775      6.266     0.630
19.1521      6.266     0.639
19.4306      6.266     0.649
19.7133      6.266     0.658
20.0000      6.266     0.668
20.2909      6.266     0.678
20.5860      6.266     0.687
20.8855      6.266     0.697
21.1893      6.266     0.707
21.4975      6.266     0.718
21.8102      6.266     0.728
22.1274      6.266     0.739
22.4492      6.267     0.749
22.7758      6.267     0.760
23.1071      6.267     0.771
23.4432      6.267     0.783
23.7841      6.267     0.794
24.1301      6.267     0.805
24.4811      6.267     0.817
24.8372      6.267     0.829
25.1984      6.267     0.841
25.5649      6.268     0.853
25.9368      6.268     0.865
26.3141      6.268     0.878
26.6968      6.268     0.891
27.0851      6.268     0.903
27.4791      6.268     0.916
27.8788      6.268     0.930
28.2843      6.269     0.943
28.6957      6.269     0.957
29.1131      6.269     0.970
29.5365      6.269     0.984
29.9661      6.269     0.999
30.4020      6.269     1.013
30.8442      6.270     1.028
31.2929      6.270     1.042
31.7480      6.270     1.057
32.2098      6.270     1.073
32.6783      6.270     1.088
33.1536      6.271     1.104
33.6359      6.271     1.119
34.1251      6.271     1.136
34.6215      6.271     1.152
35.1250      6.271     1.168
35.6359      6.272     1.185
36.1543      6.272     1.202
36.6802      6.272     1.219
37.2137      6.272     1.237
37.7550      6.273     1.254
38.3041      6.273     1.272
38.8613      6.273     1.291
39.4265      6.273     1.309
40.0000      6.274     1.328
40.5818      6.274     1.347
41.1721      6.274     1.366
41.7710      6.275     1.385
42.3785      6.275     1.405
42.9949      6.275     1.425
43.6203      6.276     1.446
44.2548      6.276     1.466
44.8985      6.276     1.487
45.5515      6.277     1.508
46.2141      6.277     1.530
46.8863      6.277     1.551
47.5683      6.278     1.573
48.2602      6.278     1.596
48.9621      6.279     1.618
49.6743      6.279     1.641
50.3968      6.279     1.665
51.1299      6.280     1.688
51.8736      6.280     1.712
52.6281      6.281     1.736
53.3936      6.281     1.761
54.1702      6.282     1.786
54.9581      6.282     1.811
55.7575      6.283     1.837
56.5685      6.283     1.863
57.3914      6.284     1.889
58.2261      6.284     1.915
59.0730      6.285     1.942
59.9323      6.286     1.970
60.8040      6.286     1.997
61.6884      6.287     2.026
62.5857      6.287     2.054
63.4960      6.288     2.083
64.4196      6.289     2.112
65.3566      6.289     2.142
66.3073      6.290     2.172
67.2717      6.291     2.202
68.2502      6.292     2.233
69.2429      6.292     2.264
70.2501      6.293     2.296
71.2719      6.294     2.328
72.3086      6.295     2.360
73.3603      6.296     2.393
74.4274      6.296     2.426
75.5099      6.297     2.460
76.6083      6.298     2.494
77.7226      6.299     2.529
78.8531      6.300     2.564
80.0000      6.301     2.599
81.1636      6.302     2.635
82.3442      6.303     2.671
83.5419      6.304     2.708
84.7570      6.305     2.746
85.9899      6.307     2.783
87.2406      6.308     2.822
88.5096      6.309     2.860
89.7970      6.310     2.900
91.1031      6.311     2.939
92.4282      6.313     2.980
93.7726      6.314     3.020
95.1366      6.315     3.062
96.5204      6.317     3.103
97.9243      6.318     3.146
99.3486      6.320     3.188
100.794      6.321     3.232
102.260      6.323     3.275
103.747      6.324     3.320
105.256      6.326     3.365
106.787      6.327     3.410
108.340      6.329     3.456
109.916      6.331     3.502
111.515      6.333     3.549
113.137      6.335     3.597
114.783      6.336     3.645
116.452      6.338     3.694
118.146      6.340     3.743
119.865      6.342     3.793
121.608      6.344     3.843
123.377      6.347     3.894
125.171      6.349     3.945
126.992      6.351     3.997
128.839      6.353     4.050
130.713      6.356     4.103
132.615      6.358     4.157
134.543      6.361     4.211
136.500      6.363     4.266
138.486      6.366     4.321
140.500      6.369     4.377
142.544      6.372     4.434
144.617      6.374     4.491
146.721      6.377     4.548
148.855      6.380     4.607
151.020      6.384     4.665
153.217      6.387     4.725
155.445      6.390     4.785
157.706      6.393     4.845
160.000      6.397     4.906
162.327      6.400     4.967
164.688      6.404     5.029
167.084      6.408     5.092
169.514      6.411     5.155
171.980      6.415     5.218
174.481      6.419     5.282
177.019      6.424     5.346
179.594      6.428     5.411
182.206      6.432     5.476
184.856      6.437     5.542
187.545      6.441     5.608
190.273      6.446     5.675
193.041      6.451     5.741
195.849      6.456     5.809
198.697      6.461     5.876
201.587      6.466     5.944
204.520      6.471     6.012
207.494      6.477     6.080
210.512      6.482     6.148
213.574      6.488     6.217
216.681      6.494     6.285
219.833      6.500     6.354
223.030      6.506     6.422
226.274      6.513     6.491
229.565      6.519     6.559
232.905      6.526     6.627
236.292      6.533     6.695
239.729      6.540     6.762
243.216      6.548     6.829
246.754      6.555     6.896
250.343      6.563     6.961
253.984      6.571     7.026
257.678      6.579     7.090
261.426      6.587     7.153
265.229      6.596     7.214
269.087      6.605     7.274
273.001      6.614     7.332
276.972      6.623     7.387
281.000      6.632     7.440
285.088      6.642     7.490
289.234      6.652     7.537
293.441      6.662     7.578
297.709      6.673     7.614
302.040      6.684     7.643
306.433      6.695     7.661
310.890      6.706     7.666
315.412      6.716     7.660
320.000      6.723     7.647
324.655      6.727     7.633
329.377      6.729     7.624
334.168      6.730     7.625
339.028      6.730     7.639
343.959      6.730     7.663
348.962      6.730     7.696
354.038      6.730     7.735
359.188      6.730     7.780
364.412      6.730     7.830
369.713      6.730     7.885
375.090      6.730     7.944
380.546      6.730     8.007
386.081      6.730     8.075
391.697      6.730     8.147
397.394      6.730     8.223
403.175      6.730     8.303
409.039      6.730     8.387
414.989      6.730     8.475
421.025      6.730     8.568
427.149      6.730     8.666
433.362      6.730     8.768
439.665      6.730     8.877
446.060      6.730     8.993
452.548      6.730     9.118
459.131      6.730     9.257
465.809      6.730     9.425
472.584      6.731     9.597
479.458      6.737     9.764
486.432      6.778     9.846
493.507      6.817     9.811
500.686      6.806     9.793
507.968      6.804     9.788
515.357      6.755     9.817
522.853      6.725     9.992
530.458      6.729    10.223
538.174      6.729    10.445
546.002      6.730    10.664
553.943      6.730    10.868
562.001      6.730    11.084
570.175      6.730    11.310
578.469      6.732    11.542
586.883      6.742    11.760
595.419      6.757    11.945
604.080      6.763    12.119
612.866      6.763    12.307
621.780      6.752    12.528
630.824      6.737    12.820
640.000      6.733    13.185
649.309      6.743    13.581
658.753      6.770    13.946
668.335      6.805    14.246
678.056      6.849    14.457
687.919      6.884    14.575
697.925      6.892    14.672
708.077      6.893    14.798
718.376      6.880    14.977
728.825      6.869    15.253
739.426      6.868    15.607
750.181      6.870    16.010
761.093      6.887    16.428
772.163      6.919    16.805
783.394      6.952    17.140
794.789      6.985    17.445
806.349      7.002    17.738
818.078      7.007    18.067
829.977      7.024    18.438
842.050      7.057    18.809
854.298      7.090    19.179
866.724      7.123    19.548
879.330      7.142    19.925
892.120      7.161    20.342
905.097      7.195    20.788
918.262      7.230    21.261
931.618      7.279    21.754
945.169      7.330    22.219
958.917      7.373    22.690
972.864      7.451    23.126
987.015      7.536    23.462
1001.37      7.588    23.796
1015.94      7.653    24.144
1030.71      7.672    24.542
1045.71      7.695    25.097
1060.92      7.759    25.748
1076.35      7.850    26.421
1092.00      7.954    27.106
1107.89      8.074    27.777
1124.00      8.207    28.399
1140.35      8.358    28.972
1156.94      8.555    29.456
1173.77      8.786    29.763
1190.84      9.027    29.862
1208.16      9.270    29.754
1225.73      9.513    29.433
1243.56      9.739    28.931
1261.65      9.945    28.295
1280.00     10.111    27.584
1298.62     10.218    26.894
1317.51     10.277    26.329
1336.67     10.300    25.974
1356.11     10.321    25.881
1375.84     10.374    26.027
1395.85     10.478    26.348
1416.15     10.645    26.761
1436.75     10.868    27.188
1457.65     11.146    27.581
1478.85     11.497    27.869
1500.36     11.941    27.958
1522.19     12.521    27.688
1544.33     13.255    26.828
1566.79     14.136    25.140
1589.58     15.132    22.448
1612.70     16.111    18.718
1636.16     16.870    14.116
1659.95     17.175     8.986
1684.10     16.896     3.721
1708.60     15.997    -1.168
1733.45     14.607    -5.113
1758.66     12.996    -7.518
1784.24     11.421    -7.847
1810.19     10.161    -5.800
1836.52      9.359    -1.618
1863.24      9.069     3.826
1890.34      9.265     9.174
1917.83      9.894    13.287
1945.73     10.856    15.473
1974.03     11.986    15.662
2002.74     13.134    14.149
2031.87     14.034    11.465
2061.43     14.500     8.289
2091.41     14.487     5.204
2121.83     14.162     2.556
2152.69     13.838     0.470
2184.01     13.797    -1.280
2215.77     14.046    -3.144
2248.00     14.309    -5.436
2280.70     14.343    -8.142
2313.87     14.074   -11.038
2347.53     13.553   -13.795
2381.68     12.921   -16.125
2416.32     12.276   -17.899
2451.46     11.648   -19.093
2487.12     11.064   -19.762
2523.30     10.532   -19.988
2560.00     10.066   -19.842
2597.24      9.681   -19.427
2635.01      9.351   -18.835
2673.34      9.060   -18.108
2712.23      8.804   -17.278
2751.68      8.574   -16.365
2791.70      8.377   -15.369
2832.31      8.216   -14.324
2873.50      8.083   -13.268
2915.30      7.975   -12.236
2957.70      7.890   -11.255
3000.72      7.810   -10.307
3044.37      7.741    -9.382
3088.65      7.667    -8.462
3133.58      7.610    -7.532
3179.16      7.574    -6.626
3225.40      7.557    -5.780
3272.31      7.554    -5.029
3319.91      7.551    -4.386
3368.20      7.534    -3.805
3417.19      7.502    -3.226
3466.89      7.469    -2.624
3517.32      7.436    -1.987
3568.48      7.420    -1.320
3620.39      7.417    -0.664
3673.05      7.416    -0.041
3726.47      7.416     0.561
3780.67      7.417     1.136
3835.67      7.422     1.684
3891.46      7.450     2.161
3948.06      7.482     2.532
4005.49      7.483     2.876
4063.75      7.482     3.215
4122.86      7.450     3.570
4182.82      7.422     4.020
4243.66      7.417     4.534
4305.39      7.417     5.072
4368.01      7.418     5.621
4431.55      7.429     6.157
4496.01      7.454     6.652
4561.40      7.487     7.085
4627.75      7.519     7.458
4695.06      7.543     7.785
4763.35      7.552     8.099
4832.64      7.557     8.431
4902.93      7.573     8.762
4974.24      7.606     9.044
5046.60      7.636     9.269
5120.00      7.652     9.468
5194.47      7.636     9.697
5270.03      7.609    10.005
5346.68      7.593    10.394
5424.45      7.609    10.811
5503.35      7.640    11.196
5583.40      7.671    11.514
5664.61      7.688    11.770
5747.01      7.690    12.010
5830.60      7.691    12.269
5915.41      7.691    12.554
6001.45      7.691    12.863
6088.74      7.691    13.189
6177.30      7.691    13.531
6267.15      7.691    13.887
6358.31      7.691    14.261
6450.80      7.691    14.653
6544.62      7.691    15.067
6639.82      7.691    15.510
6736.40      7.691    16.000
6834.38      7.692    16.544
6933.79      7.697    17.136
7034.64      7.731    17.727
7136.96      7.796    18.224
7240.77      7.862    18.614
7346.09      7.927    18.904
7452.94      7.960    19.115
7561.35      7.969    19.335
7671.33      7.979    19.606
7782.91      7.995    19.920
7896.12      8.017    20.258
8010.97      8.042    20.592
8127.49      8.065    20.918
8245.71      8.083    21.244
8365.65      8.095    21.593
8487.33      8.101    21.993
8610.78      8.104    22.465
8736.03      8.109    23.013
8863.09      8.143    23.594
8992.01      8.209    24.120
9122.80      8.278    24.570
9255.50      8.359    24.922
9390.12      8.424    25.154
9526.70      8.462    25.347
9665.27      8.495    25.561
9805.86      8.512    25.813
9948.49      8.518    26.142
10093.2      8.535    26.544
10240.0      8.568    26.981
10388.9      8.605    27.445
10540.1      8.656    27.913
10693.4      8.709    28.350
10848.9      8.765    28.763
11006.7      8.846    29.117
11166.8      8.928    29.387
11329.2      8.994    29.607
11494.0      9.045    29.803
11661.2      9.081    30.001
11830.8      9.116    30.226
12002.9      9.151    30.492
12177.5      9.188    30.799
12354.6      9.224    31.121
12534.3      9.262    31.452
12716.6      9.312    31.784
12901.6      9.375    32.088
13089.2      9.422    32.374
13279.6      9.458    32.675
13472.8      9.480    33.021
13668.8      9.503    33.437
13867.6      9.540    33.919
14069.3      9.593    34.440
14273.9      9.674    34.945
14481.5      9.771    35.382
14692.2      9.878    35.736
14905.9      9.984    35.998
15122.7     10.084    36.166
15342.7     10.169    36.267
15565.8     10.233    36.351
15792.2     10.279    36.458
16021.9     10.298    36.624
16255.0     10.309    36.887
16491.4     10.332    37.243
16731.3     10.368    37.668
16974.7     10.420    38.132
17221.6     10.498    38.577
17472.1     10.583    38.975
17726.2     10.674    39.331
17984.0     10.758    39.647
18245.6     10.828    39.945
18511.0     10.899    40.242
18780.2     10.968    40.545
19053.4     11.044    40.858
19330.5     11.117    41.174
19611.7     11.182    41.504
19897.0     11.245    41.861
20186.4     11.323    42.222
20480.0     11.409    42.576
20777.9     11.501    42.921
21080.1     11.586    43.257
21386.7     11.657    43.598
21697.8     11.736    43.951
22013.4     11.822    44.312
22333.6     11.916    44.679
22658.4     12.010    45.043
22988.0     12.097    45.406
23322.4     12.186    45.776
23661.6     12.281    46.156
24005.8     12.390    46.528
24355.0     12.500    46.880
24709.2     12.604    47.223
25068.6     12.705    47.564
25433.2     12.799    47.915
25803.2     12.884    48.301
26178.5     12.976    48.724
26559.3     13.073    49.179
26945.6     13.174    49.673
27337.5     13.283    50.199
27735.2     13.398    50.758
28138.6     13.533    51.350
28547.9     13.665    52.014
28963.1     13.794    52.807
29384.4     13.954    53.694
29811.8     14.243    54.532
30245.4     14.738    55.056
30685.3     15.301    55.112
31131.7     15.811    54.757
31584.5     16.164    54.092
32043.9     16.226    53.428
32510.0     16.185    53.052
32982.8     16.233    52.910
33462.6     16.332    52.922
33949.3     16.546    52.998
34443.1     16.775    52.970
34944.1     16.914    52.853
35452.4     17.009    52.742
35968.0     17.095    52.685
36491.2     17.179    52.702
37022.0     17.264    52.784
37560.5     17.349    52.923
38106.8     17.432    53.087
38661.1     17.512    53.278
39223.4     17.572    53.438
39793.9     17.612    53.573
