Freq[Hz]     dBSPL  Phase[Deg]
5.00000     55.234   152.208
5.07273     55.342   152.151
5.14651     55.501   152.080
5.22137     55.708   151.992
5.29732     55.925   151.904
5.37437     56.145   151.810
5.45254     56.365   151.719
5.53185     56.585   151.627
5.61231     56.804   151.534
5.69394     57.024   151.441
5.77676     57.244   151.346
5.86079     57.464   151.250
5.94604     57.684   151.153
6.03252     57.903   151.055
6.12027     58.123   150.956
6.20929     58.343   150.855
6.29961     58.563   150.753
6.39124     58.783   150.650
6.48420     59.002   150.545
6.57851     59.222   150.439
6.67420     59.442   150.331
6.77128     59.662   150.223
6.86977     59.882   150.112
6.96969     60.102   150.001
7.07107     60.321   149.887
7.17392     60.541   149.772
7.27827     60.761   149.655
7.38413     60.981   149.537
7.49154     61.201   149.417
7.60050     61.420   149.296
7.71105     61.640   149.173
7.82321     61.860   149.048
7.93701     62.080   148.921
8.05245     62.300   148.793
8.16958     62.520   148.663
8.28841     62.739   148.530
8.40896     62.959   148.396
8.53128     63.179   148.261
8.65537     63.399   148.123
8.78126     63.619   147.983
8.90899     63.838   147.841
9.03857     64.058   147.697
9.17004     64.278   147.551
9.30342     64.498   147.403
9.43874     64.718   147.252
9.57603     64.938   147.100
9.71532     65.157   146.945
9.85663     65.377   146.789
10.0000     65.597   146.629
10.1455     65.817   146.468
10.2930     66.037   146.304
10.4427     66.256   146.138
10.5946     66.476   145.969
10.7487     66.696   145.798
10.9051     66.916   145.624
11.0637     67.136   145.448
11.2246     67.356   145.269
11.3879     67.575   145.087
11.5535     67.795   144.903
11.7216     68.015   144.716
11.8921     68.235   144.526
12.0650     68.455   144.333
12.2405     68.674   144.138
12.4186     68.894   143.939
12.5992     69.114   143.738
12.7825     69.334   143.534
12.9684     69.554   143.326
13.1570     69.773   143.115
13.3484     69.993   142.902
13.5426     70.213   142.685
13.7395     70.433   142.464
13.9394     70.653   142.241
14.1421     70.873   142.013
14.3478     71.092   141.783
14.5565     71.312   141.549
14.7683     71.532   141.311
14.9831     71.752   141.069
15.2010     71.972   140.824
15.4221     72.191   140.575
15.6464     72.411   140.322
15.8740     72.631   140.065
16.1049     72.851   139.804
16.3392     73.071   139.539
16.5768     73.291   139.270
16.8179     73.510   138.996
17.0626     73.730   138.719
17.3107     73.950   138.437
17.5625     74.170   138.151
17.8180     74.390   137.860
18.0771     74.609   137.565
18.3401     74.829   137.265
18.6068     75.049   136.961
18.8775     75.269   136.652
19.1521     75.489   136.339
19.4306     75.709   136.021
19.7133     75.928   135.700
20.0000     76.148   135.376
20.2909     76.368   135.047
20.5860     76.589   134.711
20.8855     76.814   134.360
21.1893     77.040   133.993
21.4975     77.257   133.625
21.8102     77.469   133.273
22.1274     77.684   132.929
22.4492     77.908   132.577
22.7758     78.141   132.209
23.1071     78.382   131.799
23.4432     78.608   131.350
23.7841     78.830   130.880
24.1301     79.051   130.392
24.4811     79.263   129.911
24.8372     79.476   129.450
25.1984     79.681   129.004
25.5649     79.888   128.583
25.9368     80.106   128.172
26.3141     80.330   127.753
26.6968     80.560   127.316
27.0851     80.790   126.846
27.4791     81.019   126.345
27.8788     81.251   125.812
28.2843     81.480   125.252
28.6957     81.712   124.662
29.1131     81.945   124.030
29.5365     82.167   123.370
29.9661     82.395   122.677
30.4020     82.622   121.929
30.8442     82.838   121.142
31.2929     83.050   120.325
31.7480     83.249   119.472
32.2098     83.433   118.606
32.6783     83.606   117.757
33.1536     83.758   116.965
33.6359     83.888   116.284
34.1251     84.002   115.762
34.6215     84.125   115.410
35.1250     84.281   115.184
35.6359     84.487   114.986
36.1543     84.741   114.697
36.6802     85.011   114.246
37.2137     85.283   113.614
37.7550     85.533   112.826
38.3041     85.757   111.950
38.8613     85.964   111.042
39.4265     86.157   110.136
40.0000     86.344   109.250
40.5818     86.530   108.384
41.1721     86.716   107.525
41.7710     86.902   106.661
42.3785     87.087   105.780
42.9949     87.272   104.880
43.6203     87.449   103.969
44.2548     87.613   103.069
44.8985     87.770   102.196
45.5515     87.928   101.346
46.2141     88.095   100.507
46.8863     88.273    99.653
47.5683     88.457    98.745
48.2602     88.638    97.774
48.9621     88.808    96.750
49.6743     88.957    95.712
50.3968     89.087    94.702
51.1299     89.206    93.744
51.8736     89.322    92.857
52.6281     89.454    92.018
53.3936     89.595    91.192
54.1702     89.744    90.353
54.9581     89.895    89.484
55.7575     90.039    88.581
56.5685     90.180    87.657
57.3914     90.318    86.719
58.2261     90.449    85.785
59.0730     90.574    84.866
59.9323     90.700    83.949
60.8040     90.831    83.020
61.6884     90.969    82.072
62.5857     91.100    81.104
63.4960     91.217    80.130
64.4196     91.326    79.162
65.3566     91.432    78.213
66.3073     91.543    77.291
67.2717     91.655    76.388
68.2502     91.767    75.488
69.2429     91.886    74.570
70.2501     92.011    73.616
71.2719     92.144    72.609
72.3086     92.270    71.543
73.3603     92.379    70.437
74.4274     92.474    69.316
75.5099     92.557    68.204
76.6083     92.633    67.123
77.7226     92.710    66.070
78.8531     92.788    65.025
80.0000     92.867    63.971
81.1636     92.948    62.893
82.3442     93.026    61.778
83.5419     93.091    60.633
84.7570     93.137    59.490
85.9899     93.164    58.378
87.2406     93.175    57.329
88.5096     93.176    56.368
89.7970     93.176    55.507
91.1031     93.177    54.746
92.4282     93.179    54.084
93.7726     93.190    53.503
95.1366     93.221    52.968
96.5204     93.273    52.435
97.9243     93.342    51.867
99.3486     93.416    51.240
100.794     93.487    50.557
102.260     93.548    49.838
103.747     93.600    49.112
105.256     93.654    48.383
106.787     93.717    47.631
108.340     93.779    46.856
109.916     93.833    46.074
111.515     93.875    45.292
113.137     93.905    44.530
114.783     93.937    43.803
116.452     93.980    43.100
118.146     94.028    42.402
119.865     94.074    41.699
121.608     94.119    40.989
123.377     94.165    40.272
125.171     94.212    39.549
126.992     94.263    38.814
128.839     94.316    38.059
130.713     94.369    37.275
132.615     94.422    36.461
134.543     94.475    35.610
136.500     94.528    34.715
138.486     94.581    33.763
140.500     94.634    32.727
142.544     94.686    31.592
144.617     94.730    30.341
146.721     94.742    28.999
148.855     94.711    27.628
151.020     94.651    26.255
153.217     94.531    24.980
155.445     94.372    23.931
157.706     94.182    23.162
160.000     93.948    22.768
162.327     93.737    22.803
164.688     93.574    23.193
167.084     93.476    23.839
169.514     93.465    24.573
171.980     93.532    25.189
174.481     93.644    25.584
177.019     93.791    25.692
179.594     93.935    25.498
182.206     94.060    25.053
184.856     94.178    24.392
187.545     94.258    23.576
190.273     94.317    22.678
193.041     94.342    21.733
195.849     94.323    20.825
198.697     94.272    20.042
201.587     94.216    19.385
204.520     94.160    18.838
207.494     94.126    18.373
210.512     94.114    17.927
213.574     94.085    17.494
216.681     94.030    17.129
219.833     93.974    16.845
223.030     93.922    16.641
226.274     93.906    16.488
229.565     93.928    16.285
232.905     93.948    15.983
236.292     93.946    15.621
239.729     93.931    15.220
243.216     93.884    14.847
246.754     93.822    14.595
250.343     93.763    14.481
253.984     93.706    14.492
257.678     93.668    14.618
261.426     93.669    14.792
265.229     93.708    14.921
269.087     93.765    14.946
273.001     93.825    14.847
276.972     93.890    14.603
281.000     93.953    14.203
285.088     93.985    13.713
289.234     93.986    13.220
293.441     93.960    12.753
297.709     93.893    12.400
302.040     93.818    12.264
306.433     93.757    12.339
310.890     93.704    12.595
315.412     93.700    12.973
320.000     93.766    13.319
324.655     93.875    13.503
329.377     94.021    13.429
334.168     94.160    13.045
339.028     94.257    12.426
343.959     94.317    11.662
348.962     94.314    10.871
354.038     94.259    10.203
359.188     94.176     9.749
364.412     94.066     9.578
369.713     93.984     9.693
375.090     93.952     9.977
380.546     93.984    10.293
386.081     94.065    10.506
391.697     94.175    10.510
397.394     94.260    10.312
403.175     94.318     9.999
409.039     94.342     9.668
414.989     94.320     9.468
421.025     94.272     9.530
427.149     94.252     9.840
433.362     94.303    10.278
439.665     94.447    10.675
446.060     94.652    10.870
452.548     94.878    10.755
459.131     95.086    10.326
465.809     95.286     9.641
472.584     95.488     8.723
479.458     95.689     7.561
486.432     95.879     6.159
493.507     96.038     4.528
500.686     96.153     2.709
507.968     96.243     0.700
515.357     96.316    -1.522
522.853     96.343    -3.925
530.458     96.315    -6.459
538.174     96.210    -9.112
546.002     95.995   -11.750
553.943     95.669   -14.149
562.001     95.248   -16.146
570.175     94.719   -17.572
578.469     94.142   -18.268
586.883     93.581   -18.171
595.419     93.072   -17.312
604.080     92.634   -15.805
612.866     92.273   -13.789
621.780     92.050   -11.500
630.824     91.942    -9.201
640.000     91.946    -7.082
649.309     92.014    -5.306
658.753     92.092    -3.879
668.335     92.171    -2.728
678.056     92.251    -1.781
687.919     92.331    -0.979
697.925     92.410    -0.294
708.077     92.490     0.295
718.376     92.570     0.799
728.825     92.650     1.227
739.426     92.729     1.582
750.181     92.809     1.862
761.093     92.888     2.053
772.163     92.966     2.155
783.394     93.036     2.187
794.789     93.070     2.221
806.349     93.062     2.348
818.078     93.061     2.564
829.977     93.094     2.794
842.050     93.160     2.991
854.298     93.223     3.135
866.724     93.234     3.255
879.330     93.195     3.442
892.120     93.157     3.768
905.097     93.128     4.281
918.262     93.104     5.008
931.618     93.064     5.972
945.169     93.014     7.245
958.917     92.997     8.891
972.864     93.062    10.873
987.015     93.214    13.079
1001.37     93.460    15.383
1015.94     93.844    17.535
1030.71     94.366    19.226
1045.71     95.025    20.176
1060.92     95.755    20.176
1076.35     96.460    19.216
1092.00     97.101    17.421
1107.89     97.629    14.972
1124.00     98.049    12.085
1140.35     98.361     8.939
1156.94     98.578     5.666
1173.77     98.684     2.425
1190.84     98.692    -0.653
1208.16     98.619    -3.464
1225.73     98.463    -5.874
1243.56     98.245    -7.697
1261.65     97.997    -8.837
1280.00     97.766    -9.287
1298.62     97.648    -9.186
1317.51     97.712    -8.882
1336.67     97.938    -8.788
1356.11     98.265    -9.231
1375.84     98.618   -10.361
1395.85     98.941   -12.141
1416.15     99.201   -14.441
1436.75     99.377   -17.112
1457.65     99.470   -20.014
1478.85     99.471   -22.994
1500.36     99.371   -25.865
1522.19     99.178   -28.464
1544.33     98.896   -30.642
1566.79     98.563   -32.260
1589.58     98.239   -33.255
1612.70     97.971   -33.690
1636.16     97.795   -33.731
1659.95     97.720   -33.611
1684.10     97.747   -33.552
1708.60     97.838   -33.719
1733.45     97.954   -34.164
1758.66     98.077   -34.881
1784.24     98.212   -35.887
1810.19     98.353   -37.196
1836.52     98.529   -38.868
1863.24     98.715   -40.982
1890.34     98.831   -43.463
1917.83     98.842   -46.114
1945.73     98.711   -48.739
1974.03     98.453   -51.094
2002.74     98.152   -53.006
2031.87     97.896   -54.499
2061.43     97.701   -55.686
2091.41     97.548   -56.701
2121.83     97.418   -57.686
2152.69     97.292   -58.736
2184.01     97.169   -59.826
2215.77     97.062   -60.944
2248.00     96.933   -62.064
2280.70     96.743   -63.059
2313.87     96.526   -63.813
2347.53     96.311   -64.279
2381.68     96.173   -64.536
2416.32     96.138   -64.797
2451.46     96.189   -65.293
2487.12     96.295   -66.238
2523.30     96.375   -67.693
2560.00     96.417   -69.597
2597.24     96.363   -71.778
2635.01     96.166   -73.955
2673.34     95.831   -75.819
2712.23     95.359   -77.069
2751.68     94.846   -77.422
2791.70     94.376   -76.758
2832.31     94.048   -75.197
2873.50     93.947   -73.205
2915.30     94.111   -71.455
2957.70     94.495   -70.553
3000.72     94.974   -70.816
3044.37     95.411   -72.216
3088.65     95.712   -74.491
3133.58     95.846   -77.268
3179.16     95.806   -80.178
3225.40     95.635   -82.937
3272.31     95.380   -85.381
3319.91     95.081   -87.397
3368.20     94.768   -88.927
3417.19     94.424   -89.915
3466.89     94.031   -90.215
3517.32     93.622   -89.649
3568.48     93.293   -88.180
3620.39     93.202   -86.159
3673.05     93.424   -84.288
3726.47     93.902   -83.250
3780.67     94.437   -83.291
3835.67     94.861   -84.151
3891.46     95.116   -85.345
3948.06     95.269   -86.465
4005.49     95.506   -87.450
4063.75     95.954   -88.602
4122.86     96.661   -90.465
4182.82     97.496   -93.556
4243.66     98.302   -98.035
4305.39     99.028  -103.826
4368.01     99.607  -110.736
4431.55     99.973  -118.412
4496.01    100.095  -126.491
4561.40     99.958  -134.751
4627.75     99.585  -142.980
4695.06     99.053  -150.978
4763.35     98.443  -158.618
4832.64     97.761  -165.834
4902.93     96.955  -172.497
4974.24     95.994  -178.520
5046.60     94.878   176.186
5120.00     93.649   171.848
5194.47     92.460   168.592
5270.03     91.390   166.234
5346.68     90.445   164.410
5424.45     89.669   162.653
5503.35     89.029   160.547
5583.40     88.431   157.887
5664.61     87.741   154.691
5747.01     86.840   151.251
5830.60     85.698   148.022
5915.41     84.296   145.524
6001.45     82.678   144.337
6088.74     80.950   145.018
6177.30     79.270   147.946
6267.15     77.834   153.036
6358.31     76.726   159.748
6450.80     76.045   167.098
6544.62     75.813   173.778
6639.82     75.942   178.719
6736.40     76.244  -178.520
6834.38     76.519  -177.725
6933.79     76.565  -178.387
7034.64     76.313  -179.809
7136.96     75.784   178.700
7240.77     75.032   177.718
7346.09     74.127   177.763
7452.94     73.154   179.191
7561.35     72.290  -178.051
7671.33     71.699  -174.625
7782.91     71.462  -171.577
7896.12     71.442  -169.791
8010.97     71.362  -169.433
8127.49     71.035  -170.120
8245.71     70.358  -171.182
8365.65     69.333  -171.851
8487.33     68.001  -171.398
8610.78     66.356  -168.754
8736.03     64.488  -161.635
8863.09     62.786  -146.934
8992.01     62.342  -123.850
9122.80     63.805  -104.371
9255.50     65.744   -94.906
9390.12     67.400   -91.532
9526.70     68.551   -91.156
9665.27     69.295   -91.794
9805.86     69.789   -92.397
9948.49     70.169   -92.580
10093.2     70.549   -92.248
10240.0     71.024   -91.718
10388.9     71.652   -91.521
10540.1     72.412   -92.170
10693.4     73.187   -93.894
10848.9     73.810   -96.544
11006.7     74.215   -99.785
11166.8     74.350  -103.201
11329.2     74.255  -106.314
11494.0     74.001  -108.671
11661.2     73.668  -109.961
11830.8     73.380  -110.076
12002.9     73.242  -109.254
12177.5     73.369  -108.026
12354.6     73.788  -107.137
12534.3     74.347  -107.038
12716.6     74.905  -107.740
12901.6     75.391  -109.051
13089.2     75.863  -110.841
13279.6     76.421  -113.239
13472.8     77.200  -116.698
13668.8     78.253  -121.881
13867.6     79.378  -129.127
14069.3     80.319  -138.259
14273.9     80.901  -148.707
14481.5     80.988  -160.163
14692.2     80.505  -171.830
14905.9     79.441   176.680
15122.7     77.833   166.039
15342.7     75.582   157.411
15565.8     72.955   151.764
15792.2     70.087   150.311
16021.9     67.269   154.011
16255.0     65.596   161.225
16491.4     64.703   169.006
16731.3     63.958   176.051
16974.7     63.230  -177.054
17221.6     62.750  -169.745
17472.1     62.766  -162.826
17726.2     63.195  -157.578
17984.0     63.689  -154.386
18245.6     64.047  -152.725
18511.0     64.253  -151.989
18780.2     64.361  -151.778
19053.4     64.488  -151.928
19330.5     64.639  -152.445
19611.7     64.764  -153.360
19897.0     64.771  -154.615
20186.4     64.650  -156.023
20480.0     64.443  -157.363
20777.9     64.198  -158.510
21080.1     63.947  -159.436
21386.7     63.695  -160.192
21697.8     63.443  -160.829
22013.4     63.191  -161.387
22333.6     62.939  -161.887
22658.4     62.687  -162.342
22988.0     62.435  -162.762
23322.4     62.183  -163.154
23661.6     61.931  -163.522
24005.8     61.679  -163.869
24355.0     61.427  -164.200
24709.2     61.175  -164.516
25068.6     60.923  -164.819
25433.2     60.671  -165.110
25803.2     60.419  -165.390
26178.5     60.167  -165.661
26559.3     59.915  -165.924
26945.6     59.663  -166.179
27337.5     59.411  -166.427
27735.2     59.159  -166.668
28138.6     58.907  -166.904
28547.9     58.655  -167.133
28963.1     58.403  -167.357
29384.4     58.151  -167.575
29811.8     57.900  -167.789
30245.4     57.648  -167.998
30685.3     57.396  -168.203
31131.7     57.144  -168.404
31584.5     56.892  -168.601
32043.9     56.640  -168.795
32510.0     56.388  -168.984
32982.8     56.136  -169.170
33462.6     55.884  -169.353
33949.3     55.632  -169.532
34443.1     55.380  -169.709
34944.1     55.128  -169.883
35452.4     54.876  -170.053
35968.0     54.624  -170.221
36491.2     54.372  -170.387
37022.0     54.120  -170.551
37560.5     53.868  -170.717
38106.8     53.619  -170.869
38661.1     53.381  -171.017
39223.4     53.199  -171.133
39793.9     53.075  -171.225
