Freq[Hz]     dBSPL  Phase[Deg]
5.00000     -0.365   164.765
5.07273     -0.252   164.748
5.14651     -0.087   164.729
5.22137      0.129   164.709
5.29732      0.356   164.700
5.37437      0.585   164.692
5.45254      0.814   164.689
5.53185      1.044   164.686
5.61231      1.273   164.684
5.69394      1.502   164.683
5.77676      1.732   164.681
5.86079      1.961   164.680
5.94604      2.190   164.679
6.03252      2.420   164.679
6.12027      2.649   164.678
6.20929      2.878   164.678
6.29961      3.108   164.678
6.39124      3.337   164.678
6.48420      3.566   164.678
6.57851      3.796   164.679
6.67420      4.025   164.680
6.77128      4.254   164.680
6.86977      4.484   164.682
6.96969      4.713   164.683
7.07107      4.942   164.684
7.17392      5.172   164.685
7.27827      5.401   164.686
7.38413      5.630   164.688
7.49154      5.860   164.690
7.60050      6.089   164.692
7.71105      6.318   164.694
7.82321      6.548   164.696
7.93701      6.777   164.699
8.05245      7.007   164.701
8.16958      7.236   164.703
8.28841      7.465   164.706
8.40896      7.695   164.709
8.53128      7.924   164.712
8.65537      8.153   164.715
8.78126      8.383   164.718
8.90899      8.612   164.721
9.03857      8.841   164.724
9.17004      9.071   164.728
9.30342      9.300   164.731
9.43874      9.529   164.735
9.57603      9.759   164.739
9.71532      9.988   164.743
9.85663     10.217   164.747
10.0000     10.447   164.751
10.1455     10.676   164.755
10.2930     10.905   164.760
10.4427     11.135   164.764
10.5946     11.364   164.769
10.7487     11.593   164.773
10.9051     11.823   164.778
11.0637     12.052   164.783
11.2246     12.281   164.789
11.3879     12.511   164.794
11.5535     12.740   164.799
11.7216     12.969   164.805
11.8921     13.199   164.811
12.0650     13.428   164.816
12.2405     13.657   164.822
12.4186     13.887   164.828
12.5992     14.116   164.834
12.7825     14.345   164.841
12.9684     14.575   164.847
13.1570     14.804   164.854
13.3484     15.033   164.860
13.5426     15.263   164.867
13.7395     15.492   164.874
13.9394     15.722   164.882
14.1421     15.951   164.889
14.3478     16.180   164.896
14.5565     16.410   164.904
14.7683     16.639   164.911
14.9831     16.868   164.919
15.2010     17.098   164.927
15.4221     17.327   164.935
15.6464     17.556   164.943
15.8740     17.786   164.951
16.1049     18.015   164.959
16.3392     18.244   164.968
16.5768     18.474   164.976
16.8179     18.703   164.985
17.0626     18.932   164.994
17.3107     19.162   165.003
17.5625     19.391   165.012
17.8180     19.620   165.021
18.0771     19.850   165.031
18.3401     20.079   165.040
18.6068     20.308   165.050
18.8775     20.538   165.060
19.1521     20.767   165.071
19.4306     20.996   165.081
19.7133     21.226   165.092
20.0000     21.455   165.102
20.2909     21.684   165.113
20.5860     21.914   165.124
20.8855     22.143   165.135
21.1893     22.372   165.147
21.4975     22.602   165.159
21.8102     22.831   165.171
22.1274     23.060   165.183
22.4492     23.290   165.195
22.7758     23.519   165.207
23.1071     23.749   165.220
23.4432     23.978   165.233
23.7841     24.207   165.246
24.1301     24.437   165.259
24.4811     24.666   165.273
24.8372     24.895   165.287
25.1984     25.125   165.300
25.5649     25.354   165.315
25.9368     25.583   165.329
26.3141     25.813   165.344
26.6968     26.042   165.359
27.0851     26.271   165.374
27.4791     26.501   165.389
27.8788     26.730   165.405
28.2843     26.959   165.421
28.6957     27.189   165.437
29.1131     27.418   165.453
29.5365     27.647   165.470
29.9661     27.877   165.487
30.4020     28.106   165.504
30.8442     28.335   165.521
31.2929     28.565   165.539
31.7480     28.794   165.557
32.2098     29.023   165.575
32.6783     29.253   165.593
33.1536     29.482   165.612
33.6359     29.711   165.631
34.1251     29.941   165.651
34.6215     30.170   165.670
35.1250     30.399   165.690
35.6359     30.629   165.711
36.1543     30.858   165.731
36.6802     31.087   165.752
37.2137     31.317   165.774
37.7550     31.546   165.795
38.3041     31.775   165.817
38.8613     32.005   165.839
39.4265     32.234   165.862
40.0000     32.464   165.885
40.5818     32.693   165.908
41.1721     32.922   165.932
41.7710     33.152   165.956
42.3785     33.381   165.980
42.9949     33.610   166.005
43.6203     33.840   166.030
44.2548     34.069   166.055
44.8985     34.298   166.081
45.5515     34.528   166.107
46.2141     34.757   166.134
46.8863     34.986   166.161
47.5683     35.216   166.189
48.2602     35.445   166.217
48.9621     35.674   166.245
49.6743     35.904   166.274
50.3968     36.133   166.303
51.1299     36.362   166.333
51.8736     36.592   166.363
52.6281     36.821   166.393
53.3936     37.050   166.424
54.1702     37.280   166.456
54.9581     37.509   166.488
55.7575     37.738   166.520
56.5685     37.968   166.553
57.3914     38.197   166.587
58.2261     38.426   166.621
59.0730     38.656   166.655
59.9323     38.885   166.690
60.8040     39.114   166.726
61.6884     39.344   166.762
62.5857     39.573   166.798
63.4960     39.802   166.836
64.4196     40.032   166.873
65.3566     40.261   166.912
66.3073     40.491   166.951
67.2717     40.720   166.990
68.2502     40.949   167.030
69.2429     41.179   167.071
70.2501     41.408   167.112
71.2719     41.637   167.154
72.3086     41.867   167.197
73.3603     42.096   167.240
74.4274     42.325   167.284
75.5099     42.555   167.329
76.6083     42.784   167.374
77.7226     43.013   167.420
78.8531     43.243   167.467
80.0000     43.472   167.514
81.1636     43.701   167.563
82.3442     43.931   167.612
83.5419     44.160   167.661
84.7570     44.389   167.712
85.9899     44.619   167.763
87.2406     44.848   167.815
88.5096     45.077   167.868
89.7970     45.307   167.922
91.1031     45.536   167.976
92.4282     45.765   168.032
93.7726     45.995   168.088
95.1366     46.224   168.145
96.5204     46.453   168.203
97.9243     46.683   168.262
99.3486     46.912   168.322
100.794     47.141   168.383
102.260     47.371   168.444
103.747     47.600   168.507
105.256     47.829   168.571
106.787     48.059   168.636
108.340     48.288   168.702
109.916     48.517   168.769
111.515     48.747   168.837
113.137     48.976   168.906
114.783     49.206   168.976
116.452     49.435   169.047
118.146     49.664   169.120
119.865     49.894   169.193
121.608     50.123   169.268
123.377     50.352   169.344
125.171     50.582   169.422
126.992     50.811   169.500
128.839     51.040   169.580
130.713     51.270   169.661
132.615     51.499   169.744
134.543     51.728   169.828
136.500     51.958   169.913
138.486     52.187   170.000
140.500     52.416   170.088
142.544     52.646   170.178
144.617     52.875   170.269
146.721     53.104   170.362
148.855     53.334   170.457
151.020     53.563   170.553
153.217     53.792   170.651
155.445     54.022   170.750
157.706     54.251   170.851
160.000     54.480   170.954
162.327     54.710   171.059
164.688     54.939   171.166
167.084     55.168   171.274
169.514     55.398   171.385
171.980     55.627   171.497
174.481     55.856   171.612
177.019     56.086   171.728
179.594     56.315   171.847
182.206     56.544   171.968
184.856     56.774   172.091
187.545     57.003   172.216
190.273     57.233   172.344
193.041     57.462   172.474
195.849     57.691   172.607
198.697     57.921   172.742
201.587     58.150   172.880
204.520     58.379   173.020
207.494     58.609   173.164
210.512     58.838   173.310
213.574     59.067   173.458
216.681     59.297   173.610
219.833     59.526   173.765
223.030     59.755   173.923
226.274     59.985   174.084
229.565     60.214   174.249
232.905     60.443   174.417
236.292     60.673   174.588
239.729     60.902   174.763
243.216     61.131   174.941
246.754     61.361   175.124
250.343     61.590   175.310
253.984     61.819   175.500
257.678     62.049   175.695
261.426     62.278   175.894
265.229     62.507   176.097
269.087     62.737   176.304
273.001     62.966   176.517
276.972     63.195   176.734
281.000     63.425   176.956
285.088     63.654   177.183
289.234     63.883   177.415
293.441     64.113   177.653
297.709     64.342   177.896
302.040     64.571   178.145
306.433     64.801   178.400
310.890     65.030   178.661
315.412     65.259   178.928
320.000     65.489   179.201
324.655     65.718   179.481
329.377     65.948   179.767
334.168     66.177  -179.940
339.028     66.406  -179.640
343.959     66.636  -179.334
348.962     66.865  -179.020
354.038     67.094  -178.700
359.188     67.324  -178.374
364.412     67.553  -178.042
369.713     67.782  -177.704
375.090     68.012  -177.361
380.546     68.241  -177.014
386.081     68.470  -176.665
391.697     68.700  -176.315
397.394     68.929  -175.968
403.175     69.158  -175.622
409.039     69.389  -175.296
414.989     69.622  -175.022
421.025     69.874  -174.874
427.149     70.132  -174.930
433.362     70.352  -175.174
439.665     70.508  -175.531
446.060     70.552  -175.851
452.548     70.478  -175.869
459.131     70.297  -175.236
465.809     70.008  -173.468
472.584     69.661  -170.138
479.458     69.532  -165.163
486.432     69.825  -159.506
493.507     70.453  -154.256
500.686     71.383  -150.362
507.968     72.332  -148.212
515.357     73.203  -147.382
522.853     73.976  -147.475
530.458     74.606  -148.167
538.174     75.098  -149.158
546.002     75.442  -150.153
553.943     75.655  -150.848
562.001     75.748  -150.972
570.175     75.747  -150.240
578.469     75.736  -148.437
586.883     75.815  -145.553
595.419     76.100  -141.914
604.080     76.654  -138.165
612.866     77.443  -135.010
621.780     78.340  -132.861
630.824     79.240  -131.750
640.000     80.055  -131.471
649.309     80.748  -131.672
658.753     81.311  -131.986
668.335     81.769  -132.096
678.056     82.169  -131.771
687.919     82.573  -130.903
697.925     83.056  -129.553
708.077     83.661  -127.981
718.376     84.406  -126.538
728.825     85.284  -125.578
739.426     86.200  -125.275
750.181     87.074  -125.563
761.093     87.875  -126.279
772.163     88.596  -127.216
783.394     89.254  -128.153
794.789     89.873  -128.928
806.349     90.507  -129.517
818.078     91.185  -130.005
829.977     91.927  -130.506
842.050     92.740  -131.188
854.298     93.580  -132.177
866.724     94.441  -133.526
879.330     95.292  -135.222
892.120     96.106  -137.188
905.097     96.885  -139.328
918.262     97.651  -141.611
931.618     98.431  -144.040
945.169     99.220  -146.636
958.917    100.039  -149.472
972.864    100.869  -152.637
987.015    101.701  -156.183
1001.37    102.518  -160.124
1015.94    103.301  -164.460
1030.71    104.043  -169.163
1045.71    104.725  -174.184
1060.92    105.342  -179.465
1076.35    105.894   175.043
1092.00    106.394   169.344
1107.89    106.847   163.448
1124.00    107.236   157.401
1140.35    107.545   151.258
1156.94    107.737   145.110
1173.77    107.802   139.088
1190.84    107.771   133.296
1208.16    107.660   127.820
1225.73    107.509   122.718
1243.56    107.344   117.980
1261.65    107.154   113.578
1280.00    106.931   109.536
1298.62    106.654   105.911
1317.51    106.332   102.768
1336.67    105.994   100.156
1356.11    105.696    98.049
1375.84    105.485    96.331
1395.85    105.346    94.856
1416.15    105.250    93.535
1436.75    105.163    92.335
1457.65    105.081    91.290
1478.85    105.048    90.400
1500.36    105.108    89.540
1522.19    105.274    88.512
1544.33    105.526    87.101
1566.79    105.820    85.151
1589.58    106.102    82.620
1612.70    106.327    79.583
1636.16    106.458    76.192
1659.95    106.476    72.626
1684.10    106.376    69.067
1708.60    106.171    65.711
1733.45    105.881    62.739
1758.66    105.508    60.339
1784.24    105.075    58.679
1810.19    104.642    57.822
1836.52    104.285    57.693
1863.24    104.087    58.055
1890.34    104.057    58.546
1917.83    104.135    58.859
1945.73    104.255    58.848
1974.03    104.397    58.486
2002.74    104.560    57.781
2031.87    104.740    56.742
2061.43    104.923    55.373
2091.41    105.073    53.708
2121.83    105.169    51.823
2152.69    105.198    49.834
2184.01    105.159    47.882
2215.77    105.064    46.097
2248.00    104.917    44.594
2280.70    104.743    43.465
2313.87    104.573    42.736
2347.53    104.434    42.377
2381.68    104.367    42.281
2416.32    104.378    42.286
2451.46    104.436    42.294
2487.12    104.529    42.249
2523.30    104.653    42.097
2560.00    104.804    41.816
2597.24    105.006    41.361
2635.01    105.261    40.622
2673.34    105.539    39.521
2712.23    105.815    38.043
2751.68    106.059    36.221
2791.70    106.250    34.136
2832.31    106.392    31.863
2873.50    106.490    29.466
2915.30    106.552    26.991
2957.70    106.578    24.476
3000.72    106.541    21.987
3044.37    106.423    19.667
3088.65    106.222    17.663
3133.58    105.965    16.112
3179.16    105.692    15.122
3225.40    105.479    14.672
3272.31    105.353    14.606
3319.91    105.327    14.723
3368.20    105.396    14.809
3417.19    105.532    14.706
3466.89    105.704    14.363
3517.32    105.895    13.763
3568.48    106.115    12.864
3620.39    106.383    11.579
3673.05    106.692     9.814
3726.47    106.992     7.532
3780.67    107.246     4.756
3835.67    107.409     1.559
3891.46    107.451    -1.856
3948.06    107.364    -5.230
4005.49    107.157    -8.358
4063.75    106.833   -11.020
4122.86    106.462   -13.058
4182.82    106.123   -14.472
4243.66    105.864   -15.402
4305.39    105.716   -16.074
4368.01    105.652   -16.741
4431.55    105.635   -17.569
4496.01    105.633   -18.634
4561.40    105.642   -19.957
4627.75    105.649   -21.524
4695.06    105.622   -23.258
4763.35    105.545   -25.056
4832.64    105.403   -26.814
4902.93    105.221   -28.439
4974.24    105.052   -29.927
5046.60    104.917   -31.349
5120.00    104.804   -32.766
5194.47    104.676   -34.208
5270.03    104.496   -35.632
5346.68    104.273   -36.939
5424.45    104.030   -38.032
5503.35    103.786   -38.831
5583.40    103.569   -39.364
5664.61    103.418   -39.809
5747.01    103.366   -40.417
5830.60    103.416   -41.439
5915.41    103.459   -42.945
6001.45    103.386   -44.775
6088.74    103.138   -46.640
6177.30    102.721   -48.185
6267.15    102.244   -49.110
6358.31    101.808   -49.330
6450.80    101.466   -48.954
6544.62    101.225   -48.248
6639.82    101.078   -47.510
6736.40    101.017   -46.955
6834.38    100.989   -46.635
6933.79    100.936   -46.470
7034.64    100.847   -46.379
7136.96    100.736   -46.285
7240.77    100.660   -46.124
7346.09    100.633   -45.924
7452.94    100.614   -45.724
7561.35    100.581   -45.503
7671.33    100.554   -45.213
7782.91    100.572   -44.867
7896.12    100.680   -44.623
8010.97    100.900   -44.767
8127.49    101.189   -45.543
8245.71    101.482   -47.028
8365.65    101.682   -49.128
8487.33    101.723   -51.596
8610.78    101.591   -54.102
8736.03    101.310   -56.322
8863.09    100.909   -57.910
8992.01    100.448   -58.613
9122.80    100.025   -58.425
9255.50     99.726   -57.560
9390.12     99.622   -56.412
9526.70     99.667   -55.372
9665.27     99.755   -54.598
9805.86     99.784   -53.947
9948.49     99.776   -53.170
10093.2     99.863   -52.306
10240.0    100.168   -51.763
10388.9    100.687   -52.035
10540.1    101.259   -53.374
10693.4    101.669   -55.587
10848.9    101.817   -58.211
11006.7    101.749   -60.787
11166.8    101.577   -62.990
11329.2    101.462   -64.728
11494.0    101.502   -66.246
11661.2    101.632   -67.869
11830.8    101.733   -69.693
12002.9    101.748   -71.638
12177.5    101.672   -73.565
12354.6    101.600   -75.444
12534.3    101.655   -77.459
12716.6    101.823   -79.858
12901.6    101.951   -82.638
13089.2    101.880   -85.520
13279.6    101.570   -88.158
13472.8    101.101   -90.212
13668.8    100.699   -91.523
13867.6    100.553   -92.371
14069.3    100.604   -93.255
14273.9    100.691   -94.494
14481.5    100.721   -96.186
14692.2    100.712   -98.269
14905.9    100.718  -100.645
15122.7    100.738  -103.236
15342.7    100.666  -105.840
15565.8    100.445  -108.215
15792.2    100.131  -110.236
16021.9     99.894  -111.974
16255.0     99.931  -113.820
16491.4    100.174  -116.267
16731.3    100.409  -119.510
16974.7    100.469  -123.444
17221.6    100.290  -127.771
17472.1     99.952  -132.173
17726.2     99.612  -136.608
17984.0     99.392  -141.345
18245.6     99.252  -146.597
18511.0     99.027  -152.391
18780.2     98.517  -158.419
19053.4     97.531  -164.116
19330.5     96.038  -168.623
19611.7     94.101  -170.840
19897.0     92.056  -169.722
20186.4     90.498  -165.214
20480.0     89.806  -159.200
20777.9     89.654  -154.135
21080.1     89.626  -150.795
21386.7     89.603  -148.891
21697.8     89.528  -147.858
22013.4     89.398  -147.331
22333.6     89.207  -147.081
22658.4     88.979  -146.933
22988.0     88.746  -146.808
23322.4     88.511  -146.696
23661.6     88.276  -146.601
24005.8     88.042  -146.534
24355.0     87.807  -146.496
24709.2     87.572  -146.485
25068.6     87.338  -146.498
25433.2     87.103  -146.531
25803.2     86.868  -146.584
26178.5     86.634  -146.652
26559.3     86.399  -146.734
26945.6     86.164  -146.829
27337.5     85.930  -146.934
27735.2     85.695  -147.049
28138.6     85.460  -147.171
28547.9     85.225  -147.300
28963.1     84.991  -147.434
29384.4     84.756  -147.573
29811.8     84.521  -147.716
30245.4     84.287  -147.862
30685.3     84.052  -148.011
31131.7     83.817  -148.161
31584.5     83.583  -148.313
32043.9     83.348  -148.466
32510.0     83.113  -148.618
32982.8     82.879  -148.771
33462.6     82.644  -148.924
33949.3     82.409  -149.075
34443.1     82.175  -149.225
34944.1     81.940  -149.374
35452.4     81.705  -149.520
35968.0     81.470  -149.664
36491.2     81.236  -149.806
37022.0     81.001  -149.943
37560.5     80.766  -150.080
38106.8     80.535  -150.203
38661.1     80.313  -150.320
39223.4     80.144  -150.410
39793.9     80.029  -150.481
